# Temperature  Order_1  Order_2  Order_3
1.000000000000000056e-01 2.294263706617262694e-05 1.127717031414436910e-01 8.823293385195829508e-01
1.047615752789664845e-01 4.133608597341995760e-05 1.290972855078835746e-01 9.145233923090834161e-01
1.097498765493056250e-01 7.220335611258436696e-05 1.462875564049787303e-01 9.374555501198363894e-01
1.149756995397735598e-01 1.224444052735542267e-04 1.641615349061670004e-01 9.502749573715004727e-01
1.204503540258782118e-01 2.018634290840249995e-04 1.825138401238114993e-01 9.523792390192951096e-01
1.261856883066020396e-01 3.239443479369872193e-04 2.011188017351473456e-01 9.434388321697850799e-01
1.321941148466029003e-01 5.066506438282658564e-04 2.197347398634294235e-01 9.234115556839818106e-01
1.384886371393873050e-01 7.731773176348362940e-04 2.381082208443821846e-01 8.925473065393468852e-01
1.450828778495939775e-01 1.152564672623198477e-03 2.559781629188370156e-01 8.513831477256784686e-01
1.519911082952933867e-01 1.680072330015027794e-03 2.730797449155787371e-01 8.007293178696398561e-01
1.592282793341092129e-01 2.397210390123810739e-03 2.891481515293267690e-01 7.416468693226412334e-01
1.668100537200058742e-01 3.351334967732100267e-03 3.039222605348613770e-01 6.754177603457598433e-01
1.747528400007683780e-01 4.594737958904964760e-03 3.171484304634166196e-01 6.035083165125068039e-01
1.830738280295368392e-01 6.183194652097837030e-03 3.285845734782518734e-01 5.275270558760614126e-01
1.917910261672488847e-01 8.173974905241800440e-03 3.380046911834750922e-01 4.491779512740700087e-01
2.009233002565046777e-01 1.062337008867994363e-02 3.452040075755473669e-01 3.702102863205795069e-01
2.104904144512020903e-01 1.358383422268090619e-02 3.500047536838672424e-01 2.923663544002095271e-01
2.205130739903045645e-01 1.710087910093399319e-02 3.522625473044043720e-01 2.173283608796829913e-01
2.310129700083159709e-01 2.120989565822208045e-02 3.518731778351945616e-01 1.466660265816934205e-01
2.420128264794382256e-01 2.593309439017992338e-02 3.487794641869604306e-01 8.178655754288760571e-02
2.535364493970111988e-01 3.127676447382291697e-02 3.429777202226805266e-01 2.388882946026071874e-02
2.656087782946686682e-01 3.722904381928111156e-02 3.345232563670063608e-01 -2.607619836269980951e-02
2.782559402207124277e-01 4.375837116186342968e-02 3.235342869245831365e-01 -6.743672914977622002e-02
2.915053062825177510e-01 5.081275792231687571e-02 3.101936164235934434e-01 -9.982096582752608693e-02
3.053855508833415722e-01 5.831997403085681375e-02 2.947475554742415849e-01 -1.231657129358736391e-01
3.199267137797383587e-01 6.618869082386005798e-02 2.775016696119766424e-01 -1.377114055687636007e-01
3.351602650938842465e-01 7.431056845516352538e-02 2.588131860081674396e-01 -1.439829703766181135e-01
3.511191734215131643e-01 8.256321830436233467e-02 2.390801552386240536e-01 -1.427568816897037685e-01
3.678379771828634293e-01 9.081391615710096565e-02 2.187277619336371604e-01 -1.350158618125044951e-01
3.853528593710529582e-01 9.892389317630904955e-02 1.981924662423364958e-01 -1.218937621290713813e-01
4.037017258596554692e-01 1.067529925412485092e-01 1.779049025741215317e-01 -1.046141043010578031e-01
4.229242874389498863e-01 1.141644534364622821e-01 1.582726306657154802e-01 -8.442641719436877468e-02
4.430621457583880929e-01 1.210295734536438045e-01 1.396639019215723532e-01 -6.254476527899005545e-02
4.641588833612779741e-01 1.272320069519744801e-01 1.223935581981724641e-01 -4.009267148706621708e-02
4.862601580065354367e-01 1.326714805914920026e-01 1.067120220335100178e-01 -1.805800120431315381e-02
5.094138014816380622e-01 1.372667465630005024e-01 9.279808270368936074e-02 2.739630068847892508e-03
5.336699231206309957e-01 1.409576458353488937e-01 8.075586005168436388e-02 2.166760471532880317e-02
5.590810182512223614e-01 1.437062135416849185e-01 7.061597507214970038e-02 3.828520311191759007e-02
5.857020818056667411e-01 1.454968211055222282e-01 6.234061325548781451e-02 5.233587750853202492e-02
6.135907273413173657e-01 1.463354093416604773e-01 5.583187151256432945e-02 6.372911007446956100e-02
6.428073117284321958e-01 1.462479185145620086e-01 5.094256194872606724e-02 7.251471774541215498e-02
6.734150657750822555e-01 1.452780612393222703e-01 4.748852388700683380e-02 7.885273895187099036e-02
7.054802310718643055e-01 1.434846097133294085e-01 4.526147395813670538e-02 8.298194453252399905e-02
7.390722033525778389e-01 1.409383792981429850e-01 4.404149451183078656e-02 8.518962033148427815e-02
7.742636826811271078e-01 1.377190867678114439e-01 4.360840446434069428e-02 8.578466746784584041e-02
8.111308307896872849e-01 1.339122457583786785e-01 4.375144891171245387e-02 8.507536579275377930e-02
8.497534359086444944e-01 1.296062371390059309e-01 4.427695719638485850e-02 8.335244819723966470e-02
8.902150854450388007e-01 1.248896616264168896e-01 4.501382827238763207e-02 8.087751941399803912e-02
9.326033468832198858e-01 1.198490493762249393e-01 4.581688674724566923e-02 7.787637563320712331e-02
9.770099572992253512e-01 1.145669694833697794e-01 4.656829914369545187e-02 7.453646357521888366e-02
1.023531021899026339e+00 1.091205536282688626e-01 4.717734109188517766e-02 7.100755636959790729e-02
1.072267222010323762e+00 1.035804240709368162e-01 4.757886213070039449e-02 6.740469623349105988e-02
1.123324032978027631e+00 9.800999762510166635e-02 4.773081034954275437e-02 6.381252717000805708e-02
1.176811952434998476e+00 9.246512428515572812e-02 4.761116222423687760e-02 6.029027816384398969e-02
1.232846739442066575e+00 8.699401146919355510e-02 4.721456310938171308e-02 5.687682487892455063e-02
1.291549665014884107e+00 8.163738167713568972e-02 4.654893030460588443e-02 5.359542845505024800e-02
1.353047774579807516e+00 7.642881185434106939e-02 4.563221165078860941e-02 5.045790460662386012e-02
1.417474162926805503e+00 7.139520595553511262e-02 4.448943473375710500e-02 4.746810382567913378e-02
1.484968262254465099e+00 6.655735722488913264e-02 4.315012952677009517e-02 4.462467984968889606e-02
1.555676143930472266e+00 6.193056276025076662e-02 4.164616338155157499e-02 4.192318943823743205e-02
1.629750834620644184e+00 5.752525937233571307e-02 4.000999280244060818e-02 3.935760582917100653e-02
1.707352647470691265e+00 5.334765609712173451e-02 3.827331133825519205e-02 3.692134647049715584e-02
1.788649529057435128e+00 4.940034463222400807e-02 3.646605632754976178e-02 3.460791852157131532e-02
1.873817422860384996e+00 4.568287423411247078e-02 3.461572780562480883e-02 3.241127847259780981e-02
1.963040650040271506e+00 4.219228212524206434e-02 3.274696911956254120e-02 3.032598941467831016e-02
2.056512308348651619e+00 3.892357419040669980e-02 3.088135921764786213e-02 2.834724430845244128e-02
2.154434690031884259e+00 3.587015371800450492e-02 2.903736984932295262e-02 2.647080833150202567e-02
2.257019719633920118e+00 3.302419822879412020e-02 2.723044591606276627e-02 2.469291944556920373e-02
2.364489412645408350e+00 3.037698611680524075e-02 2.547317307562023403e-02 2.301017444821917488e-02
2.477076355991711498e+00 2.791917599717945453e-02 2.377550277458372052e-02 2.141941820900416030e-02
2.595024211399737268e+00 2.564104240628532760e-02 2.214501072179171637e-02 1.991764647060328269e-02
2.718588242732941307e+00 2.353267191689200830e-02 2.058717013889873812e-02 1.850192727267198009e-02
2.848035868435801810e+00 2.158412389262183081e-02 1.910562578456871316e-02 1.716934239907642878e-02
2.983647240283340274e+00 1.978556007768486266e-02 1.770245869036897110e-02 1.591694790967580417e-02
3.125715849688236680e+00 1.812734705530121351e-02 1.637843477949580198e-02 1.474175147105477417e-02
3.274549162877729902e+00 1.660013535599321258e-02 1.513323311518770600e-02 1.364070356601575912e-02
3.430469286314919319e+00 1.519491869030115475e-02 1.396565151819728970e-02 1.261069951033650695e-02
3.593813663804627634e+00 1.390307644638203582e-02 1.287378878577540714e-02 1.164858935975043690e-02
3.764935806792469197e+00 1.271640225135385778e-02 1.185520382274263436e-02 1.075119311855198510e-02
3.944206059437656009e+00 1.162712106038754981e-02 1.090705273779584220e-02 9.915319070406327165e-03
4.132012400115338657e+00 1.062789691910100143e-02 1.002620543638839401e-02 9.137783479319882413e-03
4.328761281083059131e+00 9.711833248889665399e-03 9.209343516794487455e-03 8.415430315046497356e-03
4.534878508128584507e+00 8.872467234846696110e-03 8.453041399822277396e-03 7.745150020378295530e-03
4.750810162102798273e+00 8.103759653299383650e-03 7.753832637137499442e-03 7.123896647531515608e-03
4.977023564332111683e+00 7.400081260703736570e-03 7.108263281817674313e-03 6.548702944920413611e-03
5.214008287999686964e+00 6.756196676708164234e-03 6.512934093698571208e-03 6.016693176625622155e-03
5.462277217684342823e+00 6.167246529997032732e-03 5.964533211177742121e-03 5.525093610170974529e-03
5.722367659350219959e+00 5.628728494066212798e-03 5.459860765150039222e-03 5.071240720502023791e-03
5.994842503189412142e+00 5.136477719195299205e-03 4.995846750305574582e-03 4.652587236214847724e-03
6.280291441834256361e+00 4.686647064354806588e-03 4.569563311503989714e-03 4.266706204774544861e-03
6.579332246575682497e+00 4.275687446464783784e-03 4.178232453250449799e-03 3.911293282645836138e-03
6.892612104349698399e+00 3.900328552260719141e-03 3.819230041441386194e-03 3.584167469128006489e-03
7.220809018385467404e+00 3.557560098134095010e-03 3.490086840142766871e-03 3.283270503569758834e-03
7.564633275546290392e+00 3.244613773978255976e-03 3.188487212826724392e-03 3.006665138085459245e-03
7.924828983539177862e+00 2.958945966744590348e-03 2.912266017149121259e-03 2.752532484707480558e-03
8.302175681319747369e+00 2.698221326733193665e-03 2.659404134462754494e-03 2.519168619275779977e-03
8.697490026177835176e+00 2.460297213406977598e-03 2.428022999000357864e-03 2.304980605936597215e-03
9.111627561154895361e+00 2.243209036686507913e-03 2.216378426043077738e-03 2.108482087106239387e-03
9.545484566618341660e+00 2.045156493353211813e-03 2.022853982354317487e-03 1.928288565024171772e-03
1.000000000000000000e+01 1.864490685589022517e-03 1.845954094645473661e-03 1.763112483146826422e-03
